 # Detector n:            1   airout    
 # N. of energy intervals         100
  9.9999997E-05  1.0426128E-04   4.151152       71.02878    
  1.0426128E-04  1.0870414E-04   4.689778       70.85918    
  1.0870414E-04  1.1333632E-04   7.051820       56.08494    
  1.1333632E-04  1.1816590E-04  0.8021221       99.00000    
  1.1816590E-04  1.2320127E-04   5.619666       55.06998    
  1.2320127E-04  1.2845121E-04   1.887780       99.00000    
  1.2845121E-04  1.3392488E-04   3.152941       72.57121    
  1.3392488E-04  1.3963180E-04   4.496071       59.88420    
  1.3963180E-04  1.4558190E-04   5.901443       59.97380    
  1.4558190E-04  1.5178554E-04   5.841020       50.04417    
  1.5178554E-04  1.5825355E-04   1.669027       99.00000    
  1.5825355E-04  1.6499715E-04  0.8849525       99.00000    
  1.6499715E-04  1.7202814E-04   4.553563       51.21734    
  1.7202814E-04  1.7935874E-04   15.78975       61.07944    
  1.7935874E-04  1.8700173E-04   3.778162       55.84092    
  1.8700173E-04  1.9497037E-04   6.345698       44.79868    
  1.9497037E-04  2.0327861E-04   21.13799       54.32939    
  2.0327861E-04  2.1194086E-04   33.10984       37.14243    
  2.1194086E-04  2.2097227E-04   13.48686       42.54821    
  2.2097227E-04  2.3038850E-04   30.75324       40.85263    
  2.3038850E-04  2.4020599E-04   15.93217       53.01897    
  2.4020599E-04  2.5044184E-04   53.64112       29.52177    
  2.5044184E-04  2.6111386E-04   43.46384       32.78201    
  2.6111386E-04  2.7224064E-04   56.16064       26.90789    
  2.7224064E-04  2.8384157E-04   28.70283       39.80145    
  2.8384157E-04  2.9593683E-04   39.32652       30.99879    
  2.9593683E-04  3.0854755E-04   20.04966       44.17530    
  3.0854755E-04  3.2169558E-04   23.51809       38.95119    
  3.2169558E-04  3.3540392E-04   53.01346       25.91735    
  3.3540392E-04  3.4969641E-04   27.88896       32.35380    
  3.4969641E-04  3.6459797E-04   46.16828       29.27171    
  3.6459797E-04  3.8013447E-04   51.76782       26.18484    
  3.8013447E-04  3.9633305E-04   38.54671       28.51995    
  3.9633305E-04  4.1322192E-04   54.95675       22.36438    
  4.1322192E-04  4.3083046E-04   41.81446       22.24797    
  4.3083046E-04  4.4918931E-04   78.39803       20.75958    
  4.4918931E-04  4.6833052E-04   38.92705       27.98283    
  4.6833052E-04  4.8828736E-04   56.86908       22.28870    
  4.8828736E-04  5.0909468E-04   62.76045       19.61760    
  5.0909468E-04  5.3078862E-04   71.20951       18.82096    
  5.3078862E-04  5.5340701E-04   53.38530       21.09084    
  5.5340701E-04  5.7698914E-04   44.37711       23.62614    
  5.7698914E-04  6.0157629E-04   50.28524       19.58337    
  6.0157629E-04  6.2721106E-04   29.79616       26.54175    
  6.2721106E-04  6.5393833E-04   34.45383       24.76566    
  6.5393833E-04  6.8180443E-04   37.11717       21.02130    
  6.8180443E-04  7.1085803E-04   35.47552       22.88131    
  7.1085803E-04  7.4114965E-04   35.52240       24.76259    
  7.4114965E-04  7.7273208E-04   42.15848       20.15235    
  7.7273208E-04  8.0566033E-04   35.13933       18.61399    
  8.0566033E-04  8.3999184E-04   27.11917       27.72718    
  8.3999184E-04  8.7578606E-04   34.93529       18.86139    
  8.7578606E-04  9.1310585E-04   26.96748       22.00721    
  9.1310585E-04  9.5201575E-04   26.17296       22.61781    
  9.5201575E-04  9.9258381E-04   22.10293       25.31267    
  9.9258381E-04  1.0348805E-03   37.23604       18.17286    
  1.0348805E-03  1.0789797E-03   23.94803       19.46671    
  1.0789797E-03  1.1249580E-03   28.48305       21.34338    
  1.1249580E-03  1.1728955E-03   24.80496       19.98809    
  1.1728955E-03  1.2228759E-03   28.90473       19.42919    
  1.2228759E-03  1.2749861E-03   25.31193       21.77621    
  1.2749861E-03  1.3293166E-03   11.74147       27.57222    
  1.3293166E-03  1.3859626E-03   24.92092       20.30311    
  1.3859626E-03  1.4450223E-03   16.56656       28.43938    
  1.4450223E-03  1.5065987E-03   21.59661       19.31464    
  1.5065987E-03  1.5707990E-03   17.68308       28.06907    
  1.5707990E-03  1.6377352E-03   20.95205       18.27237    
  1.6377352E-03  1.7075235E-03   18.53798       20.87149    
  1.7075235E-03  1.7802857E-03   13.99661       21.81239    
  1.7802857E-03  1.8561487E-03   9.658812       24.89471    
  1.8561487E-03  1.9352445E-03   10.10009       24.72443    
  1.9352445E-03  2.0177104E-03   11.63836       20.06348    
  2.0177104E-03  2.1036908E-03   20.41372       18.02916    
  2.1036908E-03  2.1933350E-03   12.80636       19.56520    
  2.1933350E-03  2.2867990E-03   13.52367       19.48336    
  2.2867990E-03  2.3842456E-03   13.71651       16.90292    
  2.3842456E-03  2.4858450E-03   8.298055       23.97715    
  2.4858450E-03  2.5917736E-03   6.283507       24.76134    
  2.5917736E-03  2.7022166E-03   8.716146       24.14402    
  2.7022166E-03  2.8173653E-03   12.14177       18.97417    
  2.8173653E-03  2.9374212E-03   7.925785       25.52356    
  2.9374212E-03  3.0625926E-03   7.367854       25.36384    
  3.0625926E-03  3.1930986E-03   7.915118       23.74336    
  3.1930986E-03  3.3291653E-03   4.745359       27.15874    
  3.3291653E-03  3.4710304E-03   4.272584       36.09418    
  3.4710304E-03  3.6189402E-03   4.313463       29.82291    
  3.6189402E-03  3.7731533E-03   3.943056       26.66317    
  3.7731533E-03  3.9339378E-03   3.609091       33.92273    
  3.9339378E-03  4.1015744E-03   5.831503       22.47754    
  4.1015744E-03  4.2763534E-03   4.307278       26.54591    
  4.2763534E-03  4.4585806E-03   5.410682       23.69311    
  4.4585806E-03  4.6485728E-03   2.734020       32.34132    
  4.6485728E-03  4.8466618E-03   1.247419       46.83096    
  4.8466618E-03  5.0531914E-03   1.059430       47.08959    
  5.0531914E-03  5.2685221E-03   2.991709       29.83904    
  5.2685221E-03  5.4930281E-03   1.107500       44.74229    
  5.4930281E-03  5.7271011E-03  0.4915262       60.71630    
  5.7271011E-03  5.9711491E-03   1.215032       40.60879    
  5.9711491E-03  6.2255966E-03   0.000000       0.000000    
  6.2255966E-03  6.4908857E-03   0.000000       0.000000    
