 # Detector n:            1   airin     
 # N. of energy intervals         100
  9.9999997E-05  1.0426128E-04   7.281976      0.6326321    
  1.0426128E-04  1.0870414E-04   8.251430      0.7825000    
  1.0870414E-04  1.1333632E-04   9.501892      0.6825801    
  1.1333632E-04  1.1816590E-04   10.51859      0.6288744    
  1.1816590E-04  1.2320127E-04   11.80530      0.4971432    
  1.2320127E-04  1.2845121E-04   13.22975      0.5723346    
  1.2845121E-04  1.3392488E-04   14.68845      0.5547795    
  1.3392488E-04  1.3963180E-04   16.54778      0.4883641    
  1.3963180E-04  1.4558190E-04   18.72210      0.4299677    
  1.4558190E-04  1.5178554E-04   21.34307      0.4359981    
  1.5178554E-04  1.5825355E-04   24.79942      0.4111784    
  1.5825355E-04  1.6499715E-04   28.82430      0.4510297    
  1.6499715E-04  1.7202814E-04   33.92003      0.3885482    
  1.7202814E-04  1.7935874E-04   40.05901      0.3310459    
  1.7935874E-04  1.8700173E-04   46.55615      0.3219572    
  1.8700173E-04  1.9497037E-04   53.81279      0.3256141    
  1.9497037E-04  2.0327861E-04   62.14280      0.2778794    
  2.0327861E-04  2.1194086E-04   70.05322      0.2405471    
  2.1194086E-04  2.2097227E-04   78.70396      0.2619940    
  2.2097227E-04  2.3038850E-04   86.89852      0.2364442    
  2.3038850E-04  2.4020599E-04   94.93247      0.2236685    
  2.4020599E-04  2.5044184E-04   102.7823      0.2497905    
  2.5044184E-04  2.6111386E-04   108.8940      0.2002159    
  2.6111386E-04  2.7224064E-04   114.1576      0.2310773    
  2.7224064E-04  2.8384157E-04   119.1636      0.1896715    
  2.8384157E-04  2.9593683E-04   123.1562      0.2158220    
  2.9593683E-04  3.0854755E-04   126.4076      0.2120249    
  3.0854755E-04  3.2169558E-04   128.7361      0.1931460    
  3.2169558E-04  3.3540392E-04   130.7873      0.1731377    
  3.3540392E-04  3.4969641E-04   131.7192      0.1672601    
  3.4969641E-04  3.6459797E-04   131.5518      0.1509821    
  3.6459797E-04  3.8013447E-04   131.3937      0.1631954    
  3.8013447E-04  3.9633305E-04   130.5405      0.1698560    
  3.9633305E-04  4.1322192E-04   129.3416      0.1582692    
  4.1322192E-04  4.3083046E-04   127.2912      0.1407736    
  4.3083046E-04  4.4918931E-04   124.8857      0.1476207    
  4.4918931E-04  4.6833052E-04   122.0209      0.1638619    
  4.6833052E-04  4.8828736E-04   119.7323      0.1563802    
  4.8828736E-04  5.0909468E-04   116.3915      0.1554044    
  5.0909468E-04  5.3078862E-04   195.6735      0.1081210    
  5.3078862E-04  5.5340701E-04   107.9946      0.1670444    
  5.5340701E-04  5.7698914E-04   104.5700      0.1486854    
  5.7698914E-04  6.0157629E-04   100.6594      0.1471273    
  6.0157629E-04  6.2721106E-04   97.69926      0.1532570    
  6.2721106E-04  6.5393833E-04   93.66267      0.1586463    
  6.5393833E-04  6.8180443E-04   89.89065      0.1519847    
  6.8180443E-04  7.1085803E-04   86.44214      0.1611272    
  7.1085803E-04  7.4114965E-04   82.78424      0.1564770    
  7.4114965E-04  7.7273208E-04   79.45572      0.1447290    
  7.7273208E-04  8.0566033E-04   76.12530      0.1576382    
  8.0566033E-04  8.3999184E-04   72.66093      0.1352932    
  8.3999184E-04  8.7578606E-04   69.68901      0.1620623    
  8.7578606E-04  9.1310585E-04   66.21422      0.1532015    
  9.1310585E-04  9.5201575E-04   63.26984      0.1781909    
  9.5201575E-04  9.9258381E-04   60.18930      0.1471387    
  9.9258381E-04  1.0348805E-03   57.58873      0.1380226    
  1.0348805E-03  1.0789797E-03   54.56171      0.1419403    
  1.0789797E-03  1.1249580E-03   51.78363      0.1448845    
  1.1249580E-03  1.1728955E-03   49.28960      0.1869583    
  1.1728955E-03  1.2228759E-03   46.86275      0.1516657    
  1.2228759E-03  1.2749861E-03   44.32762      0.1684341    
  1.2749861E-03  1.3293166E-03   41.93334      0.1895946    
  1.3293166E-03  1.3859626E-03   39.74235      0.1635025    
  1.3859626E-03  1.4450223E-03   37.42889      0.1761141    
  1.4450223E-03  1.5065987E-03   35.41039      0.2053728    
  1.5065987E-03  1.5707990E-03   33.52955      0.1818338    
  1.5707990E-03  1.6377352E-03   31.43011      0.1547637    
  1.6377352E-03  1.7075235E-03   29.64095      0.1562738    
  1.7075235E-03  1.7802857E-03   27.84521      0.1890543    
  1.7802857E-03  1.8561487E-03   26.21412      0.1684518    
  1.8561487E-03  1.9352445E-03   24.65316      0.1991560    
  1.9352445E-03  2.0177104E-03   23.10098      0.1969007    
  2.0177104E-03  2.1036908E-03   21.60327      0.1718795    
  2.1036908E-03  2.1933350E-03   20.18875      0.2025900    
  2.1933350E-03  2.2867990E-03   18.92128      0.2129180    
  2.2867990E-03  2.3842456E-03   17.62759      0.2109063    
  2.3842456E-03  2.4858450E-03   16.45926      0.2191470    
  2.4858450E-03  2.5917736E-03   15.38508      0.2231089    
  2.5917736E-03  2.7022166E-03   14.30088      0.2019528    
  2.7022166E-03  2.8173653E-03   13.30387      0.1699851    
  2.8173653E-03  2.9374212E-03   12.32972      0.2254455    
  2.9374212E-03  3.0625926E-03   11.45060      0.2096628    
  3.0625926E-03  3.1930986E-03   10.57474      0.2673328    
  3.1930986E-03  3.3291653E-03   9.815830      0.2202120    
  3.3291653E-03  3.4710304E-03   8.978174      0.2195739    
  3.4710304E-03  3.6189402E-03   8.247676      0.2741275    
  3.6189402E-03  3.7731533E-03   7.568767      0.2661515    
  3.7731533E-03  3.9339378E-03   6.906290      0.2846987    
  3.9339378E-03  4.1015744E-03   6.271465      0.2582014    
  4.1015744E-03  4.2763534E-03   5.637836      0.2535657    
  4.2763534E-03  4.4585806E-03   5.086045      0.2862705    
  4.4585806E-03  4.6485728E-03   4.511400      0.2442759    
  4.6485728E-03  4.8466618E-03   3.952890      0.2902381    
  4.8466618E-03  5.0531914E-03   3.402549      0.3255170    
  5.0531914E-03  5.2685221E-03   2.831643      0.3108740    
  5.2685221E-03  5.4930281E-03   2.249526      0.4119235    
  5.4930281E-03  5.7271011E-03   1.633343      0.4769995    
  5.7271011E-03  5.9711491E-03  0.8810483      0.6685767    
  5.9711491E-03  6.2255966E-03  2.3685209E-02   3.888515    
  6.2255966E-03  6.4908857E-03   0.000000       0.000000    
