 # Detector n:            1   airin     
 # N. of energy intervals         100
  9.9999997E-05  1.0426128E-04   8.972610       14.97439    
  1.0426128E-04  1.0870414E-04   7.681408       21.69666    
  1.0870414E-04  1.1333632E-04   12.81205       35.70393    
  1.1333632E-04  1.1816590E-04   10.92787       13.74819    
  1.1816590E-04  1.2320127E-04   11.42152       9.439553    
  1.2320127E-04  1.2845121E-04   15.68941       36.65221    
  1.2845121E-04  1.3392488E-04   14.15250       17.71180    
  1.3392488E-04  1.3963180E-04   16.14075       25.91511    
  1.3963180E-04  1.4558190E-04   23.01219       19.08404    
  1.4558190E-04  1.5178554E-04   20.31141       25.04558    
  1.5178554E-04  1.5825355E-04   25.50750       20.41718    
  1.5825355E-04  1.6499715E-04   41.77525       14.83797    
  1.6499715E-04  1.7202814E-04   33.89400       9.076768    
  1.7202814E-04  1.7935874E-04   34.57521       11.74514    
  1.7935874E-04  1.8700173E-04   47.11800       13.03790    
  1.8700173E-04  1.9497037E-04   58.19189       12.25352    
  1.9497037E-04  2.0327861E-04   64.72256       18.77456    
  2.0327861E-04  2.1194086E-04   67.87376       16.73056    
  2.1194086E-04  2.2097227E-04   91.95581       8.468949    
  2.2097227E-04  2.3038850E-04   90.36489       6.973757    
  2.3038850E-04  2.4020599E-04   96.36535       13.31740    
  2.4020599E-04  2.5044184E-04   103.4126       13.39830    
  2.5044184E-04  2.6111386E-04   115.4822       6.415750    
  2.6111386E-04  2.7224064E-04   123.9996       4.016479    
  2.7224064E-04  2.8384157E-04   127.2699       8.382586    
  2.8384157E-04  2.9593683E-04   126.2017       2.508305    
  2.9593683E-04  3.0854755E-04   122.6190       8.520720    
  3.0854755E-04  3.2169558E-04   143.6675       6.783451    
  3.2169558E-04  3.3540392E-04   133.2111       5.977721    
  3.3540392E-04  3.4969641E-04   145.1813       5.110382    
  3.4969641E-04  3.6459797E-04   118.9414       6.150781    
  3.6459797E-04  3.8013447E-04   133.4486       5.850394    
  3.8013447E-04  3.9633305E-04   133.1971       7.074158    
  3.9633305E-04  4.1322192E-04   155.0320       4.463088    
  4.1322192E-04  4.3083046E-04   140.5434       2.957422    
  4.3083046E-04  4.4918931E-04   132.3909       3.694546    
  4.4918931E-04  4.6833052E-04   122.1753       3.069519    
  4.6833052E-04  4.8828736E-04   112.5490       5.647376    
  4.8828736E-04  5.0909468E-04   116.8121       6.285442    
  5.0909468E-04  5.3078862E-04   188.7008       4.799722    
  5.3078862E-04  5.5340701E-04   120.2320       5.697260    
  5.5340701E-04  5.7698914E-04   93.14592       7.061687    
  5.7698914E-04  6.0157629E-04   103.9719       5.857088    
  6.0157629E-04  6.2721106E-04   93.93742       2.669928    
  6.2721106E-04  6.5393833E-04   96.07637       4.199840    
  6.5393833E-04  6.8180443E-04   88.06230       7.490831    
  6.8180443E-04  7.1085803E-04   94.84387       8.103197    
  7.1085803E-04  7.4114965E-04   92.96482       5.608980    
  7.4114965E-04  7.7273208E-04   77.01413       4.332722    
  7.7273208E-04  8.0566033E-04   76.21478       5.122437    
  8.0566033E-04  8.3999184E-04   70.81168       8.604058    
  8.3999184E-04  8.7578606E-04   77.01420       3.557119    
  8.7578606E-04  9.1310585E-04   61.78852       8.200713    
  9.1310585E-04  9.5201575E-04   61.44063       7.311972    
  9.5201575E-04  9.9258381E-04   68.27737       6.772071    
  9.9258381E-04  1.0348805E-03   56.92853       7.639175    
  1.0348805E-03  1.0789797E-03   54.80469       8.138441    
  1.0789797E-03  1.1249580E-03   56.46548       9.374223    
  1.1249580E-03  1.1728955E-03   54.88273       8.295782    
  1.1728955E-03  1.2228759E-03   46.17875       2.903074    
  1.2228759E-03  1.2749861E-03   39.51485       7.564564    
  1.2749861E-03  1.3293166E-03   44.81249       6.756870    
  1.3293166E-03  1.3859626E-03   39.65396       6.072263    
  1.3859626E-03  1.4450223E-03   36.83879       4.880295    
  1.4450223E-03  1.5065987E-03   38.33290       7.563771    
  1.5065987E-03  1.5707990E-03   31.64488       9.808063    
  1.5707990E-03  1.6377352E-03   34.54720       3.940303    
  1.6377352E-03  1.7075235E-03   27.56885       5.735063    
  1.7075235E-03  1.7802857E-03   26.77195       8.208478    
  1.7802857E-03  1.8561487E-03   24.39363       5.899243    
  1.8561487E-03  1.9352445E-03   25.18238       6.251351    
  1.9352445E-03  2.0177104E-03   21.10607       9.589958    
  2.0177104E-03  2.1036908E-03   22.64929       5.827019    
  2.1036908E-03  2.1933350E-03   20.78978       2.807392    
  2.1933350E-03  2.2867990E-03   17.85674       6.253349    
  2.2867990E-03  2.3842456E-03   17.51617       5.768223    
  2.3842456E-03  2.4858450E-03   16.60003       5.928075    
  2.4858450E-03  2.5917736E-03   15.57761       13.44792    
  2.5917736E-03  2.7022166E-03   14.77327       5.857061    
  2.7022166E-03  2.8173653E-03   14.00017       10.20724    
  2.8173653E-03  2.9374212E-03   13.03203       5.650554    
  2.9374212E-03  3.0625926E-03   9.986676       5.646630    
  3.0625926E-03  3.1930986E-03   10.87612       1.811333    
  3.1930986E-03  3.3291653E-03   9.120799       10.39175    
  3.3291653E-03  3.4710304E-03   8.919937       14.21972    
  3.4710304E-03  3.6189402E-03   7.718533       12.78664    
  3.6189402E-03  3.7731533E-03   8.830215       8.612448    
  3.7731533E-03  3.9339378E-03   7.562310       11.46172    
  3.9339378E-03  4.1015744E-03   7.529058       8.788126    
  4.1015744E-03  4.2763534E-03   5.638200       5.285100    
  4.2763534E-03  4.4585806E-03   5.862702       8.827356    
  4.4585806E-03  4.6485728E-03   4.283479       13.03557    
  4.6485728E-03  4.8466618E-03   3.641776       13.74812    
  4.8466618E-03  5.0531914E-03   3.480258       13.36566    
  5.0531914E-03  5.2685221E-03   2.704977       7.407183    
  5.2685221E-03  5.4930281E-03   1.672603       14.04535    
  5.4930281E-03  5.7271011E-03   1.701903       19.80960    
  5.7271011E-03  5.9711491E-03   1.038090       19.33780    
  5.9711491E-03  6.2255966E-03  4.7678286E-03   99.00000    
  6.2255966E-03  6.4908857E-03   0.000000       0.000000    
