 # Detector n:            1   airout    
 # N. of energy intervals         100
  9.9999997E-05  1.0426128E-04  0.8799130       99.00000    
  1.0426128E-04  1.0870414E-04   1.982227       59.34634    
  1.0870414E-04  1.1333632E-04   1.490688       61.46126    
  1.1333632E-04  1.1816590E-04   4.651909       43.86567    
  1.1816590E-04  1.2320127E-04   5.503380       36.73072    
  1.2320127E-04  1.2845121E-04   2.798942       61.30264    
  1.2845121E-04  1.3392488E-04   0.000000       0.000000    
  1.3392488E-04  1.3963180E-04   4.026945       33.11743    
  1.3963180E-04  1.4558190E-04   12.26784       68.42664    
  1.4558190E-04  1.5178554E-04   5.531547       42.87944    
  1.5178554E-04  1.5825355E-04   4.788478       45.80786    
  1.5825355E-04  1.6499715E-04   12.81158       59.39327    
  1.6499715E-04  1.7202814E-04   4.890232       44.78822    
  1.7202814E-04  1.7935874E-04   7.953638       90.69327    
  1.7935874E-04  1.8700173E-04   25.07935       32.11109    
  1.8700173E-04  1.9497037E-04   17.36060       81.17699    
  1.9497037E-04  2.0327861E-04   24.78356       51.05149    
  2.0327861E-04  2.1194086E-04   13.11941       59.66558    
  2.1194086E-04  2.2097227E-04   36.04823       10.91457    
  2.2097227E-04  2.3038850E-04   30.64023       41.10676    
  2.3038850E-04  2.4020599E-04   27.44896       58.73560    
  2.4020599E-04  2.5044184E-04   41.39170       58.40154    
  2.5044184E-04  2.6111386E-04   31.13553       20.75247    
  2.6111386E-04  2.7224064E-04   45.28651       30.00830    
  2.7224064E-04  2.8384157E-04   51.00062       25.00380    
  2.8384157E-04  2.9593683E-04   39.76079       20.01009    
  2.9593683E-04  3.0854755E-04   34.95177       22.95569    
  3.0854755E-04  3.2169558E-04   41.66431       52.46538    
  3.2169558E-04  3.3540392E-04   54.93256       23.40959    
  3.3540392E-04  3.4969641E-04   45.60221       35.55826    
  3.4969641E-04  3.6459797E-04   34.10468       33.62517    
  3.6459797E-04  3.8013447E-04   43.72407       41.22319    
  3.8013447E-04  3.9633305E-04   60.69032       12.91344    
  3.9633305E-04  4.1322192E-04   49.76494       10.73861    
  4.1322192E-04  4.3083046E-04   33.27515       37.37798    
  4.3083046E-04  4.4918931E-04   64.81358       21.15559    
  4.4918931E-04  4.6833052E-04   44.12382       15.27454    
  4.6833052E-04  4.8828736E-04   44.63460       12.41576    
  4.8828736E-04  5.0909468E-04   49.74082       3.380326    
  5.0909468E-04  5.3078862E-04   54.90189       9.103354    
  5.3078862E-04  5.5340701E-04   48.76836       27.85044    
  5.5340701E-04  5.7698914E-04   31.98689       13.88541    
  5.7698914E-04  6.0157629E-04   43.96588       34.44180    
  6.0157629E-04  6.2721106E-04   43.45378       13.25323    
  6.2721106E-04  6.5393833E-04   36.38983       19.75989    
  6.5393833E-04  6.8180443E-04   31.12074       25.38592    
  6.8180443E-04  7.1085803E-04   55.61158       24.73661    
  7.1085803E-04  7.4114965E-04   46.43518       12.98207    
  7.4114965E-04  7.7273208E-04   39.16711       19.78858    
  7.7273208E-04  8.0566033E-04   45.30754       8.061214    
  8.0566033E-04  8.3999184E-04   34.83569       19.66461    
  8.3999184E-04  8.7578606E-04   34.76546       29.54665    
  8.7578606E-04  9.1310585E-04   28.37954       14.43359    
  9.1310585E-04  9.5201575E-04   27.86504       8.265027    
  9.5201575E-04  9.9258381E-04   43.22942       6.190874    
  9.9258381E-04  1.0348805E-03   33.25918       19.01865    
  1.0348805E-03  1.0789797E-03   27.48160       27.94362    
  1.0789797E-03  1.1249580E-03   36.54522       12.75035    
  1.1249580E-03  1.1728955E-03   27.08790       20.07049    
  1.1728955E-03  1.2228759E-03   18.46598       25.88077    
  1.2228759E-03  1.2749861E-03   23.74026       10.31106    
  1.2749861E-03  1.3293166E-03   27.90098       9.165279    
  1.3293166E-03  1.3859626E-03   20.29285       26.57221    
  1.3859626E-03  1.4450223E-03   20.38167       27.51016    
  1.4450223E-03  1.5065987E-03   24.67951       14.28578    
  1.5065987E-03  1.5707990E-03   16.45786       27.85644    
  1.5707990E-03  1.6377352E-03   20.50086       19.28808    
  1.6377352E-03  1.7075235E-03   14.20789       8.641006    
  1.7075235E-03  1.7802857E-03   16.01837       18.34218    
  1.7802857E-03  1.8561487E-03   13.54761       22.70110    
  1.8561487E-03  1.9352445E-03   15.78593       8.463970    
  1.9352445E-03  2.0177104E-03   14.72758       25.82837    
  2.0177104E-03  2.1036908E-03   15.11200       25.46893    
  2.1036908E-03  2.1933350E-03   11.78772       14.70493    
  2.1933350E-03  2.2867990E-03   10.43009       23.24875    
  2.2867990E-03  2.3842456E-03   8.554417       16.74157    
  2.3842456E-03  2.4858450E-03   11.73288       4.623314    
  2.4858450E-03  2.5917736E-03   11.12398       16.93774    
  2.5917736E-03  2.7022166E-03   8.607561       18.86901    
  2.7022166E-03  2.8173653E-03   10.67762       20.99300    
  2.8173653E-03  2.9374212E-03   7.699655       17.96636    
  2.9374212E-03  3.0625926E-03   5.111177       17.70089    
  3.0625926E-03  3.1930986E-03   6.772263       15.87128    
  3.1930986E-03  3.3291653E-03   5.184739       39.93219    
  3.3291653E-03  3.4710304E-03   4.956948       23.08901    
  3.4710304E-03  3.6189402E-03   4.504236       24.07602    
  3.6189402E-03  3.7731533E-03   7.169840       18.36359    
  3.7731533E-03  3.9339378E-03   6.791461       24.15786    
  3.9339378E-03  4.1015744E-03   6.963876       18.43755    
  4.1015744E-03  4.2763534E-03   3.389397       12.12727    
  4.2763534E-03  4.4585806E-03   5.096740       20.04421    
  4.4585806E-03  4.6485728E-03   2.444668       12.49752    
  4.6485728E-03  4.8466618E-03   2.674795       28.13849    
  4.8466618E-03  5.0531914E-03   2.390323       30.72904    
  5.0531914E-03  5.2685221E-03   1.730092       22.98966    
  5.2685221E-03  5.4930281E-03   1.503061       38.50064    
  5.4930281E-03  5.7271011E-03   1.289604       36.76557    
  5.7271011E-03  5.9711491E-03  0.6651259       37.80809    
  5.9711491E-03  6.2255966E-03   0.000000       0.000000    
  6.2255966E-03  6.4908857E-03   0.000000       0.000000    
